ENTRY            21009   20170201                             225921009  0    1 
SUBENT        21009001   20170201                             225921009  1    1 
BIB                 13         86                                 21009  1    2 
INSTITUTE  (2GERJUL) Institut fuer Chemie, Institut               21009  1    3 
            Nuklearchemie.                                        21009  1    4 
REFERENCE  (J,NP/A,329,63,197910)                                 21009  1    5 
AUTHOR     (C.H.Wu,R.Woelfle,S.M.Qaim)                            21009  1    6 
TITLE      -Activation and mass spectrometric study of 3-He       21009  1    7 
            particle emission in the interactions of fast         21009  1    8 
            neutrons with medium mass nuclei-                     21009  1    9 
FACILITY   (ISOCY,2GERJUL) Juelich.                               21009  1   10 
INC-SOURCE (D-BE) 53MeV deuterons on a 1cm thick Be target.       21009  1   11 
INC-SPECT  .Be - breakup spectrum with maximum intensity at       21009  1   12 
            22.5MeV and a FWHM of 15.8MeV.                        21009  1   13 
            Originally adopted spectrum is in EXFOR Subent        21009  1   14 
            o1924.002 - neutron energy range 12.5 -43.5 MeV.      21009  1   15 
            Then neutron spectrum shape was reconstructed using   21009  1   16 
            extensive measurement data ( 4- 50 MeV energy range)  21009  1   17 
            of Meulders+.                                         21009  1   18 
           .Neutron flux density was 6.x 10**10/cm2/sec.          21009  1   19 
            Neutron spectrum provided by S.M.Qaim ( 29-12-2016):  21009  1   20 
             units: energy - MeV, yield - 10**8n/(muC*MeV*sr)     21009  1   21 
            Energy   Neutron yield       Energy   Neutron yield   21009  1   22 
             4.      51.5                30.      126.7           21009  1   23 
             5.      61.2                31.      111.0           21009  1   24 
             6.      72.7                32.       97.3           21009  1   25 
             7.      85.7                33.       85.3           21009  1   26 
             8.      99.4                34.       75.0           21009  1   27 
             9.     113.1                35.       66.1           21009  1   28 
            10.     126.4                36.       58.4           21009  1   29 
            11.     139.2                37.       51.9           21009  1   30 
            12.     151.9                38.       46.2           21009  1   31 
            13.     164.8                39.       41.4           21009  1   32 
            14.     178.0                40.       37.1           21009  1   33 
            15.     191.7                41.       33.2           21009  1   34 
            16.     205.9                42.       29.5           21009  1   35 
            17.     220.0                43.       25.9           21009  1   36 
            18.     233.4                44.       22.3           21009  1   37 
            19.     245.0                45.       18.8           21009  1   38 
            20.     253.6                46.       15.7           21009  1   39 
            21.     257.9                47.       12.9           21009  1   40 
            22.     256.9                48.       10.6           21009  1   41 
            23.     250.2                49.        8.8           21009  1   42 
            24.     238.3                50.        7.2           21009  1   43 
            25.     222.1                51.        5.9           21009  1   44 
            26.     203.2                52.        4.9           21009  1   45 
            27.     183.1                53.        4.0           21009  1   46 
            28.     163.1                54.        3.1           21009  1   47 
            29.     144.1                                         21009  1   48 
MONITOR    (13-AL-27(N,A)11-NA-24,,SIG,,SPA) No data given.       21009  1   49 
           (79-AU-197(N,2N)79-AU-196,,SIG,,SPA) No data given.    21009  1   50 
            Two reactions were used as flux monitors.             21009  1   51 
             79-AU-197(N,G)79-AU-198-G,,SIG,,SPA - used to check  21009  1   52 
            relative contribution of thermal neutrons, which was  21009  1   53 
            small.                                                21009  1   54 
COMMENT    .The contribution from the unknown part of the         21009  1   55 
            D - breakup spectrum below 4MeV was not taken into    21009  1   56 
            account, but this does not effect the ratio           21009  1   57 
            measurements.                                         21009  1   58 
REL-REF    (R,,G.Erdtmann+,J,JRC,26,375,1975).The quoted          21009  1   59 
            half-lives and gamma ray intensities were taken from  21009  1   60 
            JRC,26,375,1975 ; either Nucl.Data Sheets,            21009  1   61 
                               ORNL-USA (Academic Press,NY)       21009  1   62 
           (I,,S.M.Qaim+,J,JIN,36,3639,1974)                      21009  1   63 
           (I,,S.M.Qaim+,J,NP/A,295,150,1978)                     21009  1   64 
            Two refs. for the irradiation setup.                  21009  1   65 
           (R,O1924002,G.W.Schweimer,J,NP/A,100,537,1967)         21009  1   66 
           (R,,J.P.Meulders+,J,PMB,20,235,1975)                   21009  1   67 
CORRECTION .For -                                                 21009  1   68 
            decay,                                                21009  1   69 
            gamma-ray branching,                                  21009  1   70 
            counting efficiency,                                  21009  1   71 
            geometry,                                             21009  1   72 
            absorption,                                           21009  1   73 
            decay of precursors,                                  21009  1   74 
            interfering nuclear reactions on target impurities.   21009  1   75 
STATUS     (TABLE) Data taken from priv.comm..                    21009  1   76 
HISTORY    (19790725C) WWO.                                       21009  1   77 
           (19790827E)                                            21009  1   78 
           (19800108A) Reaction string in subwork 028 and 030     21009  1   79 
            changed.                                              21009  1   80 
           (19800115E)                                            21009  1   81 
           (19860205A)                                            21009  1   82 
           (19860210E)                                            21009  1   83 
           (20101114A) SD:Updated to new date formats,lower case. 21009  1   84 
                corrected according to last EXFOR rules and Dict. 21009  1   85 
           (20170201A) M.M. INC-SPECT information was added.      21009  1   86 
            REL-REFs, STATUS, decay data(energies and intensities)21009  1   87 
            were added in data Subents.                           21009  1   88 
ENDBIB              86          0                                 21009  1   89 
COMMON               2          3                                 21009  1   90 
EN-MEAN    EN-RSL-FW                                              21009  1   91 
MEV        MEV                                                    21009  1   92 
  22.5        15.8                                                21009  1   93 
ENDCOMMON            3          0                                 21009  1   94 
ENDSUBENT           93          0                                 21009  199999 
SUBENT        21009002   20170201                             225921009  2    1 
BIB                  8         12                                 21009  2    2 
REACTION   (13-AL-27(N,HE3)11-NA-25,,SIG,,SPA)                    21009  2    3 
SAMPLE     .Al powder of 99.995% chem.purity, in polyethylene     21009  2    4 
            foil, sandwiched between monitors.                    21009  2    5 
METHOD     (ACTIV)                                                21009  2    6 
DETECTOR   (GELI)                                                 21009  2    7 
DECAY-DATA (11-NA-25,59.6SEC,DG,391.,0.128,                       21009  2    8 
                             DG,975.,0.128)                       21009  2    9 
CORRECTION .Data may contain small contributions from (n,2pn),    21009  2   10 
            (n,n'2p) or (n,dp) processes.                         21009  2   11 
           .(Author).                                             21009  2   12 
ERR-ANALYS (DATA-ERR) Maximum errors quoted.                      21009  2   13 
STATUS     (TABLE) Table 1 of Nucl.Phys.,A329,63,1979             21009  2   14 
ENDBIB              12          0                                 21009  2   15 
NOCOMMON             0          0                                 21009  2   16 
DATA                 2          1                                 21009  2   17 
DATA       DATA-ERR                                               21009  2   18 
MB         MB                                                     21009  2   19 
 1.48       0.27                                                  21009  2   20 
ENDDATA              3          0                                 21009  2   21 
ENDSUBENT           20          0                                 21009  299999 
SUBENT        21009003   20170201                             225921009  3    1 
BIB                  8         10                                 21009  3    2 
REACTION   (13-AL-27(N,A)11-NA-24,,SIG,,SPA)                      21009  3    3 
SAMPLE     .Al powder of 99.995% chem.purity, in a                21009  3    4 
            polyethylene foil, sandwiched between monitors.       21009  3    5 
METHOD     (ACTIV)                                                21009  3    6 
DETECTOR   (GELI)                                                 21009  3    7 
DECAY-DATA (11-NA-24,15.0HR,DG,1368.,1.00)                        21009  3    8 
ERR-ANALYS (DATA-ERR) Maximum errors quoted.                      21009  3    9 
STATUS     (TABLE) Table 1 of Nucl.Phys.,A329,63,1979             21009  3   10 
HISTORY    (20170201A) -G was deleted from SF4 according to a     21009  3   11 
            comment of N.Otsuka ( NDS,IAEA)                       21009  3   12 
ENDBIB              10          0                                 21009  3   13 
NOCOMMON             0          0                                 21009  3   14 
DATA                 2          1                                 21009  3   15 
DATA       DATA-ERR                                               21009  3   16 
MB         MB                                                     21009  3   17 
 20.7       3.0                                                   21009  3   18 
ENDDATA              3          0                                 21009  3   19 
ENDSUBENT           18          0                                 21009  399999 
SUBENT        21009004   20170201                             225921009  4    1 
BIB                  8         10                                 21009  4    2 
REACTION   (15-P-31(N,HE3)13-AL-29,,SIG,,SPA)                     21009  4    3 
SAMPLE     .(NH4)2-H-P-O4.3H2-O, 99.98% chemically pure, in       21009  4    4 
            polyethylene foil, sandwiched between monitors.       21009  4    5 
METHOD     (ACTIV)                                                21009  4    6 
DETECTOR   (GELI)                                                 21009  4    7 
DECAY-DATA (13-AL-29,6.6MIN,DG,1273.,0.910)                       21009  4    8 
CORRECTION .Data may contain small contributions from (n,2pn),    21009  4    9 
            (n,n'2p) or (n,dp) processes.                         21009  4   10 
ERR-ANALYS (DATA-ERR) Maximum errors quoted.                      21009  4   11 
STATUS     (TABLE) Table 1 of Nucl.Phys.,A329,63,1979             21009  4   12 
ENDBIB              10          0                                 21009  4   13 
NOCOMMON             0          0                                 21009  4   14 
DATA                 2          1                                 21009  4   15 
DATA       DATA-ERR                                               21009  4   16 
MB         MB                                                     21009  4   17 
 1.34       0.27                                                  21009  4   18 
ENDDATA              3          0                                 21009  4   19 
ENDSUBENT           18          0                                 21009  499999 
SUBENT        21009005   20170201                             225921009  5    1 
BIB                  7          8                                 21009  5    2 
REACTION   (15-P-31(N,A)13-AL-28,,SIG,,SPA)                       21009  5    3 
SAMPLE     .(NH4)2-H-P-O4.3H2-O, 99.98% chem.pure, in a           21009  5    4 
            polyethylene foil, sandwiched between monitors.       21009  5    5 
METHOD     (ACTIV)                                                21009  5    6 
DETECTOR   (GELI)                                                 21009  5    7 
DECAY-DATA (13-AL-28,2.2MIN,DG,1779.,1.00)                        21009  5    8 
ERR-ANALYS (DATA-ERR) Maximum errors quoted.                      21009  5    9 
STATUS     (TABLE) Table 1 of Nucl.Phys.,A329,63,1979             21009  5   10 
ENDBIB               8          0                                 21009  5   11 
NOCOMMON             0          0                                 21009  5   12 
DATA                 2          1                                 21009  5   13 
DATA       DATA-ERR                                               21009  5   14 
MB         MB                                                     21009  5   15 
 17.4       3.0                                                   21009  5   16 
ENDDATA              3          0                                 21009  5   17 
ENDSUBENT           16          0                                 21009  599999 
SUBENT        21009006   20170201                             225921009  6    1 
BIB                  8         10                                 21009  6    2 
REACTION   (15-P-31(N,2A)11-NA-24,,SIG,,SPA)                      21009  6    3 
SAMPLE     .(NH4)2-H-P-O4.3H2-O, 99.98% chem.pure, in a           21009  6    4 
            polyethylene foil, sandwiched between monitors.       21009  6    5 
METHOD     (ACTIV)                                                21009  6    6 
DETECTOR   (GELI)                                                 21009  6    7 
DECAY-DATA (11-NA-24,15.0HR,DG,1368.,1.00)                        21009  6    8 
ERR-ANALYS (DATA-ERR) Maximum errors quoted.                      21009  6    9 
STATUS     (TABLE) Table 1 of Nucl.Phys.,A329,63,1979             21009  6   10 
HISTORY    (20170201A) -G was deleted from SF4 according to a     21009  6   11 
            comment of N.Otsuka ( NDS,IAEA)                       21009  6   12 
ENDBIB              10          0                                 21009  6   13 
NOCOMMON             0          0                                 21009  6   14 
DATA                 2          1                                 21009  6   15 
DATA       DATA-ERR                                               21009  6   16 
MB         MB                                                     21009  6   17 
 0.03       0.01                                                  21009  6   18 
ENDDATA              3          0                                 21009  6   19 
ENDSUBENT           18          0                                 21009  699999 
SUBENT        21009007   20170201                             225921009  7    1 
BIB                  7          9                                 21009  7    2 
REACTION   (19-K-39(N,2A)15-P-32,,SIG,,SPA)                       21009  7    3 
SAMPLE     .K2-C-O3.2H2-O, suprapure, in a polyethylene foil,     21009  7    4 
            sandwiched between monitors.                          21009  7    5 
METHOD     (ACTIV)                                                21009  7    6 
           (CHSEP)                                                21009  7    7 
DETECTOR   (PROPC)                                                21009  7    8 
DECAY-DATA (15-P-32,14.3D,B-)                                     21009  7    9 
ERR-ANALYS (DATA-ERR) Maximum errors quoted.                      21009  7   10 
STATUS     (TABLE) Table 1 of Nucl.Phys.,A329,63,1979             21009  7   11 
ENDBIB               9          0                                 21009  7   12 
NOCOMMON             0          0                                 21009  7   13 
DATA                 2          1                                 21009  7   14 
DATA       DATA-ERR                                               21009  7   15 
MB         MB                                                     21009  7   16 
 0.10       0.05                                                  21009  7   17 
ENDDATA              3          0                                 21009  7   18 
ENDSUBENT           17          0                                 21009  799999 
SUBENT        21009008   20170201                             225921009  8    1 
BIB                  8         10                                 21009  8    2 
REACTION   (19-K-41(N,HE3)17-CL-39,,SIG,,SPA)                     21009  8    3 
SAMPLE     .K2-C-O3.2H2-O, suprapure in polyethylene foil,        21009  8    4 
            sandwiched between monitors.                          21009  8    5 
METHOD     (ACTIV)                                                21009  8    6 
DETECTOR   (GELI)                                                 21009  8    7 
DECAY-DATA (17-CL-39,56.0MIN,DG,250.,0.471)                       21009  8    8 
CORRECTION .Data may contain small contributions from (n,2pn),    21009  8    9 
            (n,n'2p) or (n,dp) processes.                         21009  8   10 
ERR-ANALYS (DATA-ERR) Maximum errors quoted.                      21009  8   11 
STATUS     (TABLE) Table 1 of Nucl.Phys.,A329,63,1979             21009  8   12 
ENDBIB              10          0                                 21009  8   13 
NOCOMMON             0          0                                 21009  8   14 
DATA                 2          1                                 21009  8   15 
DATA       DATA-ERR                                               21009  8   16 
MB         MB                                                     21009  8   17 
 0.67       0.20                                                  21009  8   18 
ENDDATA              3          0                                 21009  8   19 
ENDSUBENT           18          0                                 21009  899999 
SUBENT        21009009   20170201                             225921009  9    1 
BIB                  8         11                                 21009  9    2 
REACTION   (21-SC-45(N,HE3)19-K-43,,SIG,,SPA)                     21009  9    3 
SAMPLE     .99.99% pure, in polyethylene foil, sandwiched         21009  9    4 
            between monitors.                                     21009  9    5 
METHOD     (ACTIV)                                                21009  9    6 
DETECTOR   (GELI)                                                 21009  9    7 
DECAY-DATA (19-K-43,22.2HR,DG,372.,0.820,                         21009  9    8 
                           DG,616.,0.650)                         21009  9    9 
CORRECTION .Data may contain small contributions from (n,2pn),    21009  9   10 
            (n,n'2p) or (n,dp) processes.                         21009  9   11 
