ENTRY            21971   20170221                             225921971  0    1 
SUBENT        21971001   20170221                             225921971  1    1 
BIB                 14        121                                 21971  1    2 
INSTITUTE  (2FR BRC)                                              21971  1    3 
REFERENCE  ((J,RE,96,219,1986)=(C,85SANTA,2,1561,1985))           21971  1    4 
             Initial publication                                  21971  1    5 
           (R,CEA-R-6447,201611) Revised data .                   21971  1    6 
AUTHOR     (J.Frehaut,A.Bertin,R.Blois,E.Gryntakis,               21971  1    7 
            C.A.Philis)                                           21971  1    8 
TITLE       (n,2n) cross sections of 2-H and 239-Pu               21971  1    9 
REL-REF    (M,,J.Frehaut+,J,NIM,135,511,1976)                     21971  1   10 
           (I,21568001,J.Frehaut+,J,NSE,74,29,1980)               21971  1   11 
            Two refs. for setup, method, corrections details      21971  1   12 
           (O,21568001,J.Frehaut,R,CEA-R-6447,201611)             21971  1   13 
            U-235, U-238 (n,2n) cross section                     21971  1   14 
           (O,21669001,J.Frehaut,R,CEA-R-6447,201611)             21971  1   15 
            C-13 n,2n cross section                               21971  1   16 
           (O,20416001,J.Frehaut,R,CEA-R-6447,201611)             21971  1   17 
             Lot of other n,2n cross-sections .                   21971  1   18 
FACILITY   (VDG,2FR BRC)                                          21971  1   19 
INC-SOURCE (D-D)                                                  21971  1   20 
METHOD      See REL-REFs.                                         21971  1   21 
DETECTOR   (STANK) Large gadolinium loaded liquid scintillator    21971  1   22 
             Neutron detection efficiency as function of energy:  21971  1   23 
             En,MeV  Efficiency smoothed,%  Efficiency ,%         21971  1   24 
               0.25     80.00               79.90                 21971  1   25 
               0.50     79.80               77.90                 21971  1   26 
               0.75     79.60               79.20                 21971  1   27 
               1.00     79.30               80.70                 21971  1   28 
               1.25     78.90               79.30                 21971  1   29 
               1.50     78.40               79.30                 21971  1   30 
               1.75     77.70               77.10                 21971  1   31 
               2.00     76.90               77.20                 21971  1   32 
               2.25     75.90               73.10                 21971  1   33 
               2.50     74.90               71.90                 21971  1   34 
               2.75     73.80               75.70                 21971  1   35 
               3.00     72.70               74.30                 21971  1   36 
               3.25     71.40               71.80                 21971  1   37 
               3.50     70.30               70.10                 21971  1   38 
               3.75     69.30               70.40                 21971  1   39 
               4.00     68.40               68.50                 21971  1   40 
               4.25     67.40               70.20                 21971  1   41 
               4.50     66.40               66.60                 21971  1   42 
               4.75     65.40               63.20                 21971  1   43 
               5.00     64.60               64.60                 21971  1   44 
               5.25     63.70               64.80                 21971  1   45 
               5.50     62.90               61.70                 21971  1   46 
               5.75     62.10               63.20                 21971  1   47 
               6.00     61.30               60.60                 21971  1   48 
               6.25     60.60               61.40                 21971  1   49 
               6.50     59.90               59.20                 21971  1   50 
               6.75     59.30               56.00                 21971  1   51 
               7.00     58.80               56.40                 21971  1   52 
               7.25     58.20               57.70                 21971  1   53 
               7.50     57.50               59.20                 21971  1   54 
               7.75     56.80               58.20                 21971  1   55 
               8.00     56.00               56.90                 21971  1   56 
               8.25     55.20               56.50                 21971  1   57 
               8.50     54.20               51.00                 21971  1   58 
               8.75     53.30               51.00                 21971  1   59 
               9.00     52.30               53.90                 21971  1   60 
               9.25     51.30               51.00                 21971  1   61 
               9.50     50.20               49.80                 21971  1   62 
               9.75     49.90               50.30                 21971  1   63 
              10.00     49.50               49.90                 21971  1   64 
ASSUMED    (ASSUM,98-CF-252(0,F),PR,NU)                           21971  1   65 
            Detector efficiency was calibrated using a  252-Cf    21971  1   66 
            source assuming a value of NU=3.732. This value was   21971  1   67 
            multiplied by a correction factor ranging from 0.92   21971  1   68 
            at 8 MeV to 0.85 at 15 MeV                            21971  1   69 
MONITOR    (92-U-235(N,F),,SIG)  MONIT-REFs in data Subents.      21971  1   70 
                           Sowerby         Standard2007    Ratio  21971  1   71 
            En,MeV            Cross-section,barn           No-dim.21971  1   72 
             1.             0.0121           0.01355       1.1240 21971  1   73 
             1.2            0.0393           0.0336        0.8555 21971  1   74 
             1.4            0.129            0.1912        1.4806 21971  1   75 
             1.6            0.372            0.4233        1.1379 21971  1   76 
             1.8            0.487            0.4839        0.9938 21971  1   77 
             2.             0.522            0.5340        1.0230 21971  1   78 
             2.2            0.525            0.5471        1.0421 21971  1   79 
             2.4            0.515            0.5463        1.0608 21971  1   80 
             2.6            0.507            0.5411        1.0673 21971  1   81 
             2.8            0.503            0.5372        1.0680 21971  1   82 
             3.             0.502            0.5237        1.0432 21971  1   83 
             3.5            0.506            0.5430        1.0731 21971  1   84 
             4.             0.512            0.5544        1.0828 21971  1   85 
             4.5            0.513            0.5593        1.0903 21971  1   86 
             5.             0.514            0.5467        1.0636 21971  1   87 
             5.5            0.54             0.5463        1.0117 21971  1   88 
             6.             0.613            0.6108        0.9964 21971  1   89 
             6.5            0.753            0.8158        1.0834 21971  1   90 
             7.             0.874            0.9387        1.0740 21971  1   91 
             8.             0.956            1.0111        1.0576 21971  1   92 
             9.             0.963            1.0094        1.0482 21971  1   93 
            10.             0.952            1.0013        1.0518 21971  1   94 
            11.             0.954            1.0019        1.0502 21971  1   95 
            12.             0.966            0.9850        1.0197 21971  1   96 
            13.             1.008            1.0151        1.0070 21971  1   97 
            14.             1.126            1.1434        1.0155 21971  1   98 
            15.             1.238            1.2346        0.9973 21971  1   99 
CORRECTION  Background correction.                                21971  1  100 
            For dead time losses.                                 21971  1  101 
            Efficiency correction.                                21971  1  102 
            Multiple event correction.                            21971  1  103 
            For events not induced in sample.                     21971  1  104 
            For (n,2n) reactions induced by non-monoenergetic     21971  1  105 
            neutrons.                                             21971  1  106 
            Correction in the flux measurement.                   21971  1  107 
            For the effect of (n,2n) reaction in the axial tube   21971  1  108 
            of scintillator tank - estimated to be negligible.    21971  1  109 
            For reactions induced by degradated neutrons ( -3%)   21971  1  110 
            and loss of secondary neutrons in sample ( +0.5%) .   21971  1  111 
ERR-ANALYS (DATA-ERR) .No detailed information                    21971  1  112 
HISTORY    (19850923C)HH.                                         21971  1  113 
           (19860106E)                                            21971  1  114 
           (20131120A) SD: Updated to new date formats,lower case.21971  1  115 
            Corrections according last EXFOR rules and Dict.      21971  1  116 
            Ref. on 85Santa corrected.                            21971  1  117 
           (20170221A) M.M. STATUS,DETECTOR were corrected.       21971  1  118 
           REL-REFs were added.                                   21971  1  119 
           New ref. R,CEA-R-6447 was added.                       21971  1  120 
           Subent 004 was added.                                  21971  1  121 
            R.Blois -> R.Bois ( as in C,85SANTA,2,1561,1985)      21971  1  122 
            Monitor reaction was added.                           21971  1  123 
ENDBIB             121          0                                 21971  1  124 
COMMON               1          3                                 21971  1  125 
ASSUM                                                             21971  1  126 
PRT/FIS                                                           21971  1  127 
 3.732                                                            21971  1  128 
ENDCOMMON            3          0                                 21971  1  129 
ENDSUBENT          128          0                                 21971  199999 
SUBENT        21971002   20170221                             225921971  2    1 
BIB                  4          6                                 21971  2    2 
REACTION   (1-H-2(N,2N)1-H-1,,SIG)                                21971  2    3 
SAMPLE      1.5 gram  of deuterated polyethylene powder           21971  2    4 
MONIT-REF  (,M.G.Sowerby+,R,AERE-R-72/73,1973)                    21971  2    5 
STATUS     (TABLE) .Data taken from paper received from author    21971  2    6 
                  Table 1 of C,85SANTA,2,1561,1985                21971  2    7 
           (SPSDD,21971004) Superseded by revised data            21971  2    8 
ENDBIB               6          0                                 21971  2    9 
NOCOMMON             0          0                                 21971  2   10 
DATA                 4         16                                 21971  2   11 
EN         EN-ERR     DATA       DATA-ERR                         21971  2   12 
MEV        MEV        MB         MB                               21971  2   13 
 7.4100E+00 1.6500E-01 1.0200E+02 1.7000E+01                      21971  2   14 
 7.9300E+00 1.5000E-01 1.3100E+02 1.5000E+01                      21971  2   15 
 8.4400E+00 1.3500E-01 1.2100E+02 1.3000E+01                      21971  2   16 
 8.9400E+00 1.2500E-01 1.3100E+02 1.0000E+01                      21971  2   17 
 9.4400E+00 1.1500E-01 1.4200E+02 1.1000E+01                      21971  2   18 
 9.9300E+00 1.1000E-01 1.1400E+02 1.0000E+01                      21971  2   19 
 1.0420E+01 1.0000E-01 1.3500E+02 1.9000E+01                      21971  2   20 
 1.0910E+01 9.5000E-02 1.3900E+02 1.0000E+01                      21971  2   21 
 1.1400E+01 9.0000E-02 1.5900E+02 1.0000E+01                      21971  2   22 
 1.1880E+01 8.5000E-02 1.4500E+02 1.0000E+01                      21971  2   23 
 1.2360E+01 8.5000E-02 1.5300E+02 1.3000E+01                      21971  2   24 
 1.2850E+01 8.0000E-02 1.6400E+02 1.4000E+01                      21971  2   25 
 1.3330E+01 7.5000E-02 1.6300E+02 1.4000E+01                      21971  2   26 
 1.3800E+01 7.5000E-02 1.7300E+02 1.4000E+01                      21971  2   27 
 1.4280E+01 7.0000E-02 1.6600E+02 1.4000E+01                      21971  2   28 
 1.4760E+01 6.5000E-02 1.8000E+02 1.4000E+01                      21971  2   29 
ENDDATA             18          0                                 21971  2   30 
ENDSUBENT           29          0                                 21971  299999 
SUBENT        21971003   20170221                             225921971  3    1 
BIB                  6         13                                 21971  3    2 
REACTION   (94-PU-239(N,2N)94-PU-238,,SIG)                        21971  3    3 
SAMPLE     (94-PU-239,ENR=0.9987)                                 21971  3    4 
             Pu-240 content 0.13 % .                              21971  3    5 
              15.5 gram  of 99.87% enriched metallic Pu-239       21971  3    6 
MONIT-REF  (,M.G.Sowerby+,R,AERE-R-72/73,1973)                    21971  3    7 
COMMENT    Of author in R,CEA-R-6447,201611, page 18:             21971  3    8 
           re-normalization for new U-238 standard (2007 year)    21971  3    9 
           is negligieble due to low precision of measurement.    21971  3   10 
STATUS     (TABLE) .Data taken from paper received from author    21971  3   11 
                  Table 1 of C,85SANTA,2,1561,1985                21971  3   12 
HISTORY    (20170221A) M.M. CS value at 7.01 MeV was corrected    21971  3   13 
           49. -> -49. as given in Table 1 and Fig.2 of           21971  3   14 
            C,85SANTA,2,1561,1985                                 21971  3   15 
ENDBIB              13          0                                 21971  3   16 
NOCOMMON             0          0                                 21971  3   17 
DATA                 4         14                                 21971  3   18 
EN         EN-ERR     DATA       DATA-ERR                         21971  3   19 
MEV        MEV        MB         MB                               21971  3   20 
 6.4900E+00 8.5000E-02 2.4000E+01 6.3000E+01                      21971  3   21 
 7.0100E+00 8.0000E-02-4.9000E+01 5.0000E+01                      21971  3   22 
 7.5200E+00 7.5000E-02 5.4000E+01 5.8000E+01                      21971  3   23 
 8.0300E+00 7.5000E-02 1.7700E+02 7.0000E+01                      21971  3   24 
 8.5400E+00 7.0000E-02 2.7500E+02 5.4000E+01                      21971  3   25 
 9.0400E+00 6.5000E-02 2.4900E+02 4.1000E+01                      21971  3   26 
 9.5500E+00 6.5000E-02 3.5400E+02 5.6000E+01                      21971  3   27 
 1.0060E+01 6.0000E-02 4.1500E+02 3.9000E+01                      21971  3   28 
 1.0560E+01 6.0000E-02 4.1100E+02 7.0000E+01                      21971  3   29 
 1.1070E+01 5.5000E-02 3.5600E+02 7.9000E+01                      21971  3   30 
 1.1570E+01 5.5000E-02 4.1800E+02 4.9000E+01                      21971  3   31 
 1.2080E+01 5.5000E-02 4.5500E+02 7.6000E+01                      21971  3   32 
 1.2580E+01 5.0000E-02 3.1800E+02 1.3200E+02                      21971  3   33 
 1.3090E+01 5.0000E-02 5.8800E+02 1.4800E+02                      21971  3   34 
ENDDATA             16          0                                 21971  3   35 
ENDSUBENT           34          0                                 21971  399999 
SUBENT        21971004   20170221                             225921971  4    1 
BIB                  4          6                                 21971  4    2 
REACTION   (1-H-2(N,2N)1-H-1,,SIG)                                21971  4    3 
MONIT-REF  (,,R,STI/PUB-1291,2007)                                21971  4    4 
           International Evaluation of neutron cross-section      21971  4    5 
           Standards. IAEA,Vienna, 2007.                          21971  4    6 
STATUS     (TABLE) Table 22 of R,CEA-R-6447,201611                21971  4    7 
HISTORY    (20170221C) M.M.                                       21971  4    8 
ENDBIB               6          0                                 21971  4    9 
NOCOMMON             0          0                                 21971  4   10 
DATA                 4         16                                 21971  4   11 
EN         EN-ERR     DATA       DATA-ERR                         21971  4   12 
MEV        MEV        MB         MB                               21971  4   13 
  7.41      0.165      109.       17.                             21971  4   14 
  7.93      0.150      138.       15.                             21971  4   15 
  8.44      0.135      127.       13.                             21971  4   16 
  8.94      0.125      137.       10.                             21971  4   17 
  9.44      0.115      149.       11.                             21971  4   18 
  9.93      0.110      120.       10.                             21971  4   19 
 10.42      0.100      142.       19.                             21971  4   20 
 10.91      0.095      146.       10.                             21971  4   21 
 11.40      0.090      165.       10.                             21971  4   22 
 11.88      0.085      148.       10.                             21971  4   23 
 12.36      0.085      155.       13.                             21971  4   24 
 12.85      0.080      165.       14.                             21971  4   25 
 13.33      0.075      165.       14.                             21971  4   26 
 13.80      0.075      175.       14.                             21971  4   27 
 14.28      0.070      168.       14.                             21971  4   28 
 14.76      0.065      180.       14.                             21971  4   29 
ENDDATA             18          0                                 21971  4   30 
ENDSUBENT           29          0                                 21971  499999 
ENDENTRY             4          0                                 2197199999999 
